INDEX VERSION 1.134+C:\Users\raman\eclipse-workspace\.metadata\.plugins\org.eclipse.jdt.core
1794793718.index
1535391734.index
3959137331.index
1651323329.index
3509728184.index
3004781057.index
4061261111.index
2570696409.index
2448816411.index
2631674561.index
3363638282.index
4061887506.index
2712451368.index
2385079830.index
234304855.index
4081626758.index
4244400430.index
881250203.index
818067029.index
2164543220.index
271279379.index
477633669.index
2316364559.index
2838507601.index
840738207.index
279262363.index
716680594.index
450127315.index
3638887297.index
1949748419.index
2635358329.index
1083672594.index
2487385994.index
4068498868.index
2165107563.index
3677819160.index
3351105319.index
313433925.index
2555611171.index
2832709398.index
4049017015.index
1522317887.index
3280147616.index
4090628595.index
293285687.index
22037328.index
721872919.index
243178798.index
2994985798.index
851258803.index
3258249211.index
1868779341.index
3544740431.index
321577731.index
1647662852.index
4254615772.index
3277154481.index
1454545488.index
2910667918.index
1629154675.index
4155848908.index
2830336426.index
1692039404.index
1865797976.index
2104648468.index
988071315.index
1131855854.index
1282702438.index
896891682.index
4110655751.index
3444155587.index
412307617.index
2275928026.index
2956042599.index
2202679762.index
933572542.index
4038737109.index
3047981658.index
1963543126.index
3651407782.index
1695740945.index
2376353538.index
3620810761.index
4168309567.index
3984615816.index
4280616816.index
3079762317.index
2689590009.index
3847431644.index
2089906960.index
2040741202.index
4049583260.index
3251774406.index
1278610713.index
763514824.index
2953252236.index
907572560.index
3916062953.index
516108105.index
1892747883.index
2360362161.index
3757700454.index
342002429.index
3678962444.index
3841604034.index
3410337639.index
7171259.index
2862485362.index
3236080047.index
2685972925.index
2469527272.index
2876351542.index
3741744937.index
514882016.index
1816446192.index
2780835593.index
3233111450.index
72495184.index
